id,data_size,parallel_qs_in_ms,sequential_qs_in_ms
1,10,0.100,0.000
2,20,0.025,0.003
3,50,0.071,0.012
4,100,0.061,0.017
5,200,0.110,0.038
6,500,0.245,0.115
7,1000,0.421,0.267
8,2000,0.911,0.595
9,5000,2.261,1.669
10,10000,4.386,4.022
11,20000,10.154,8.593
12,50000,31.073,21.611
13,100000,48.788,46.305
14,200000,102.407,101.173
15,500000,306.182,385.943
